# Relative Source Time Function
# for the 2013 Mw 3.3 St. Gallen earthquake
# Király-Proag et al., GRL, 2019
# 
# Station: SGT04
# Wave type: SE
# EGF: EGF2
# 
# time(s) amp(N.m/s)
0.000000        0
0.002500  1.4184e+13
0.005000  3.10977e+13
0.007500  2.52095e+13
0.010000        0
0.012500        0
0.015000        0
0.017500        0
0.020000  2.8566e+13
0.022500  8.75955e+13
0.025000  1.47925e+14
0.027500  2.03458e+14
0.030000  2.47778e+14
0.032500  2.77213e+14
0.035000  2.90109e+14
0.037500  2.86642e+14
0.040000  2.6894e+14
0.042500  2.40386e+14
0.045000  2.05183e+14
0.047500  1.67954e+14
0.050000  1.32971e+14
0.052500  1.0396e+14
0.055000  8.36358e+13
0.057500  7.34653e+13
0.060000  7.38626e+13
0.062500  8.37856e+13
0.065000  1.01669e+14
0.067500  1.25599e+14
0.070000  1.52538e+14
0.072500  1.80205e+14
0.075000  2.05912e+14
0.077500  2.2914e+14
0.080000  2.48147e+14
0.082500  2.61719e+14
0.085000  2.72235e+14
0.087500  2.81001e+14
0.090000  2.89474e+14
0.092500  3.03138e+14
0.095000  3.24016e+14
0.097500  3.55695e+14
0.100000  4.09879e+14
0.102500  4.73622e+14
0.105000  5.42716e+14
0.107500  6.16189e+14
0.110000  6.92152e+14
0.112500  7.68236e+14
0.115000  8.41927e+14
0.117500  9.10088e+14
0.120000  9.70278e+14
0.122500  1.02001e+15
0.125000  1.05719e+15
0.127500  1.08077e+15
0.130000  1.0901e+15
0.132500  1.0858e+15
0.135000  1.06882e+15
0.137500  1.04016e+15
0.140000  1.00225e+15
0.142500  9.57151e+14
0.145000  9.06478e+14
0.147500  8.51912e+14
0.150000  7.94729e+14
0.152500  7.35593e+14
0.155000  6.75141e+14
0.157500  6.13911e+14
0.160000  5.51562e+14
0.162500  4.88824e+14
0.165000  4.26894e+14
0.167500  3.67357e+14
0.170000  3.12602e+14
0.172500  2.65525e+14
0.175000  2.29383e+14
0.177500  2.0733e+14
0.180000  2.01745e+14
0.182500  2.16538e+14
0.185000  2.79035e+14
0.187500  3.54756e+14
0.190000  4.35804e+14
0.192500  5.11972e+14
0.195000  5.66715e+14
0.197500  5.8195e+14
0.200000  5.36414e+14
0.202500  4.06602e+14
0.205000  1.69475e+14
0.207500        0
0.210000        0
0.212500        0
0.215000        0
0.217500        0
0.220000        0
0.222500        0
0.225000        0
0.227500        0
0.230000        0
0.232500        0
0.235000        0
0.237500        0
0.240000        0
0.242500        0
0.245000        0
0.247500        0
0.250000        0
0.252500        0
0.255000        0
0.257500        0
0.260000        0
0.262500        0
0.265000        0
0.267500        0
0.270000        0
0.272500        0
0.275000        0
0.277500        0
0.280000        0
0.282500        0
0.285000        0
0.287500        0
0.290000        0
0.292500        0
0.295000        0
0.297500        0
0.300000        0
0.302500        0
0.305000        0
0.307500        0
0.310000        0
0.312500        0
0.315000        0
0.317500        0
0.320000        0
0.322500        0
0.325000        0
0.327500        0
0.330000        0
0.332500        0
0.335000        0
0.337500        0
0.340000        0
0.342500        0
0.345000        0
0.347500        0
0.350000        0
0.352500        0
0.355000        0
0.357500        0
0.360000        0
0.362500        0
0.365000        0
0.367500        0
0.370000        0
0.372500        0
0.375000        0
0.377500        0
0.380000        0
0.382500        0
0.385000        0
0.387500        0
0.390000        0
0.392500        0
0.395000        0
0.397500        0
0.400000        0
0.402500        0
0.405000        0
0.407500        0
0.410000        0
0.412500        0
0.415000        0
0.417500        0
0.420000        0
0.422500        0
0.425000        0
0.427500        0
0.430000        0
0.432500        0
0.435000        0
0.437500        0
0.440000        0
0.442500        0
0.445000        0
0.447500        0
0.450000        0
0.452500        0
0.455000        0
0.457500        0
0.460000        0
0.462500        0
0.465000        0
0.467500        0
0.470000        0
0.472500        0
0.475000        0
0.477500        0
0.480000        0
0.482500        0
0.485000        0
0.487500        0
0.490000        0
0.492500        0
0.495000        0
0.497500        0
0.500000        0
0.502500        0
0.505000        0
0.507500        0
0.510000        0
0.512500        0
0.515000        0
0.517500        0
0.520000        0
0.522500        0
0.525000        0
0.527500        0
0.530000        0
0.532500        0
0.535000        0
0.537500        0
0.540000        0
0.542500        0
0.545000        0
0.547500        0
0.550000        0
0.552500        0
0.555000        0
0.557500        0
0.560000        0
0.562500        0
0.565000        0
0.567500        0
0.570000        0
0.572500        0
0.575000        0
0.577500        0
0.580000        0
0.582500        0
0.585000        0
0.587500        0
0.590000        0
0.592500        0
0.595000        0
0.597500        0
0.600000        0
0.602500        0
0.605000        0
0.607500        0
0.610000        0
0.612500        0
0.615000        0
0.617500        0
0.620000        0
0.622500        0
0.625000        0
0.627500        0
0.630000        0
0.632500        0
0.635000        0
0.637500        0
0.640000        0
0.642500        0
0.645000        0
0.647500        0
0.650000        0
0.652500        0
0.655000        0
0.657500        0
0.660000        0
0.662500        0
0.665000        0
0.667500        0
0.670000        0
0.672500        0
0.675000        0
0.677500        0
0.680000        0
0.682500        0
0.685000        0
0.687500        0
0.690000        0
0.692500        0
0.695000        0
0.697500        0
0.700000        0
0.702500        0
0.705000        0
