# Relative Source Time Function
# for the 2013 Mw 3.3 St. Gallen earthquake
# Király-Proag et al., GRL, 2019
# 
# Station: SGT00
# Wave type: P
# EGF: EGF1
# 
# time(s) amp(N.m/s)
0.000000        0
0.002500  1.85661e+13
0.005000  1.03775e+13
0.007500  1.59801e+13
0.010000  3.78494e+13
0.012500  6.24479e+13
0.015000  7.92954e+13
0.017500  8.42248e+13
0.020000  7.41127e+13
0.022500  5.37853e+13
0.025000  3.09071e+13
0.027500  1.15123e+13
0.030000  1.0893e+12
0.032500  1.1665e+13
0.035000  4.56341e+13
0.037500  1.18841e+14
0.040000  2.15485e+14
0.042500  3.04341e+14
0.045000  3.65602e+14
0.047500  3.86349e+14
0.050000  3.72864e+14
0.052500  3.52649e+14
0.055000  3.4384e+14
0.057500  3.57477e+14
0.060000  4.01602e+14
0.062500  4.94799e+14
0.065000  6.25963e+14
0.067500  8.18782e+14
0.070000  1.00542e+15
0.072500  1.16385e+15
0.075000  1.27559e+15
0.077500  1.32483e+15
0.080000  1.31918e+15
0.082500  1.27136e+15
0.085000  1.20014e+15
0.087500  1.13114e+15
0.090000  1.08041e+15
0.092500  1.06206e+15
0.095000  1.07892e+15
0.097500  1.11237e+15
0.100000  1.15137e+15
0.102500  1.17734e+15
0.105000  1.16391e+15
0.107500  1.10037e+15
0.110000  9.88378e+14
0.112500  8.65296e+14
0.115000  7.02921e+14
0.117500  5.38197e+14
0.120000  3.69821e+14
0.122500  2.38737e+14
0.125000  1.74102e+14
0.127500  1.68722e+14
0.130000  1.92396e+14
0.132500  2.27699e+14
0.135000  2.65976e+14
0.137500  2.98625e+14
0.140000  3.16159e+14
0.142500  3.14431e+14
0.145000  2.92897e+14
0.147500  2.53146e+14
0.150000  2.03001e+14
0.152500  1.52644e+14
0.155000  1.1424e+14
0.157500  8.74249e+13
0.160000  6.77061e+13
0.162500  5.33565e+13
0.165000  5.17323e+13
0.167500  6.5845e+13
0.170000  9.49105e+13
0.172500  1.33431e+14
0.175000  1.7099e+14
0.177500  1.93482e+14
0.180000  1.88350e+14
0.182500  1.54181e+14
0.185000  8.64661e+13
0.187500  1.31960e+13
0.190000        0
0.192500        0
0.195000        0
0.197500        0
0.200000        0
0.202500  5.34348e+13
0.205000  2.39832e+14
0.207500  3.85247e+14
0.210000  4.19021e+14
0.212500  2.69726e+14
0.215000        0
0.217500        0
0.220000        0
0.222500        0
0.225000        0
0.227500        0
0.230000        0
0.232500        0
0.235000        0
0.237500        0
0.240000        0
0.242500        0
0.245000        0
0.247500        0
0.250000        0
0.252500        0
0.255000        0
0.257500        0
0.260000        0
0.262500        0
0.265000        0
0.267500        0
0.270000        0
0.272500        0
0.275000        0
0.277500        0
0.280000        0
0.282500        0
0.285000        0
0.287500        0
0.290000        0
0.292500        0
0.295000        0
0.297500        0
0.300000        0
0.302500        0
0.305000        0
0.307500        0
0.310000        0
0.312500        0
0.315000        0
0.317500        0
0.320000        0
0.322500        0
0.325000        0
0.327500        0
0.330000        0
0.332500        0
0.335000        0
0.337500        0
0.340000        0
0.342500        0
0.345000        0
0.347500        0
0.350000        0
0.352500        0
0.355000        0
0.357500        0
0.360000        0
