# Relative Source Time Function
# for the 2013 Mw 3.3 St. Gallen earthquake
# Király-Proag et al., GRL, 2019
# 
# Station: SGT02
# Wave type: SN
# EGF: EGF1
# 
# time(s) amp(N.m/s)
0.000000        0
0.002500  1.60405e+13
0.005000  6.98993e+13
0.007500  1.55844e+14
0.010000  2.50373e+14
0.012500  3.21893e+14
0.015000  3.451e+14
0.017500  3.17129e+14
0.020000  2.71792e+14
0.022500  2.17973e+14
0.025000  1.60323e+14
0.027500  1.04006e+14
0.030000  5.42971e+13
0.032500  1.62969e+13
0.035000        0
0.037500        0
0.040000  1.34258e+13
0.042500  5.79013e+13
0.045000  1.26055e+14
0.047500  2.16479e+14
0.050000  3.26452e+14
0.052500  4.52201e+14
0.055000  5.89043e+14
0.057500  7.31707e+14
0.060000  8.74615e+14
0.062500  1.01223e+15
0.065000  1.13928e+15
0.067500  1.25115e+15
0.070000  1.34399e+15
0.072500  1.41515e+15
0.075000  1.46278e+15
0.077500  1.48598e+15
0.080000  1.48568e+15
0.082500  1.46292e+15
0.085000  1.41984e+15
0.087500  1.35907e+15
0.090000  1.2835e+15
0.092500  1.19624e+15
0.095000  1.10043e+15
0.097500  9.99109e+14
0.100000  8.95827e+14
0.102500  7.93702e+14
0.105000  6.95648e+14
0.107500  6.03966e+14
0.110000  5.1954e+14
0.112500  4.43853e+14
0.115000  3.77765e+14
0.117500  3.21566e+14
0.120000  2.75371e+14
0.122500  2.38833e+14
0.125000  2.11358e+14
0.127500  1.91935e+14
0.130000  1.79377e+14
0.132500  1.72131e+14
0.135000  1.68541e+14
0.137500  1.66744e+14
0.140000  1.64821e+14
0.142500  1.60721e+14
0.145000  1.52598e+14
0.147500  1.38643e+14
0.150000  1.1811e+14
0.152500  1.07622e+14
0.155000  8.68524e+13
0.157500  5.58465e+13
0.160000  1.52094e+13
0.162500        0
0.165000        0
0.167500        0
0.170000        0
0.172500        0
0.175000        0
0.177500        0
0.180000        0
0.182500        0
0.185000        0
0.187500        0
0.190000        0
0.192500        0
0.195000        0
0.197500        0
0.200000        0
0.202500  1.07056e+13
0.205000  8.07454e+13
0.207500  1.43528e+14
0.210000  1.91387e+14
0.212500  2.20624e+14
0.215000  2.27831e+14
0.217500  2.10567e+14
0.220000  1.68682e+14
0.222500  1.0012e+14
0.225000  3.04147e+12
0.227500        0
0.230000        0
0.232500        0
0.235000        0
0.237500        0
0.240000        0
0.242500        0
0.245000        0
0.247500        0
0.250000        0
0.252500        0
0.255000        0
0.257500        0
0.260000        0
0.262500        0
0.265000        0
0.267500        0
0.270000        0
0.272500        0
0.275000        0
0.277500        0
0.280000        0
0.282500        0
0.285000        0
0.287500        0
0.290000        0
0.292500        0
0.295000        0
0.297500        0
0.300000        0
0.302500        0
0.305000        0
0.307500        0
0.310000        0
0.312500        0
0.315000        0
0.317500        0
0.320000        0
0.322500        0
0.325000        0
0.327500        0
0.330000        0
0.332500        0
0.335000        0
0.337500        0
0.340000        0
0.342500        0
0.345000        0
0.347500        0
0.350000        0
0.352500        0
0.355000        0
0.357500        0
0.360000        0
0.362500        0
0.365000        0
0.367500        0
0.370000        0
0.372500        0
0.375000        0
0.377500        0
0.380000        0
0.382500        0
0.385000        0
0.387500        0
0.390000        0
0.392500        0
0.395000        0
0.397500        0
0.400000        0
0.402500        0
0.405000        0
0.407500        0
0.410000        0
0.412500        0
0.415000        0
0.417500        0
0.420000        0
0.422500        0
0.425000        0
0.427500        0
0.430000        0
0.432500        0
0.435000        0
0.437500        0
0.440000        0
0.442500        0
0.445000        0
0.447500        0
0.450000        0
0.452500        0
0.455000        0
0.457500        0
0.460000        0
0.462500        0
0.465000        0
0.467500        0
0.470000        0
0.472500        0
0.475000        0
0.477500        0
0.480000        0
0.482500        0
0.485000        0
0.487500        0
0.490000        0
0.492500        0
0.495000        0
0.497500        0
0.500000        0
0.502500        0
0.505000        0
0.507500        0
0.510000        0
0.512500        0
0.515000        0
0.517500        0
0.520000        0
0.522500        0
0.525000        0
0.527500        0
0.530000        0
0.532500        0
0.535000        0
0.537500        0
0.540000        0
0.542500        0
0.545000        0
0.547500        0
0.550000        0
0.552500        0
0.555000        0
0.557500        0
0.560000        0
0.562500        0
0.565000        0
0.567500        0
0.570000        0
0.572500        0
0.575000        0
0.577500        0
0.580000        0
0.582500        0
0.585000        0
0.587500        0
0.590000        0
0.592500        0
0.595000        0
0.597500        0
0.600000        0
0.602500        0
0.605000        0
0.607500        0
0.610000        0
0.612500        0
0.615000        0
0.617500        0
0.620000        0
0.622500        0
0.625000        0
0.627500        0
0.630000        0
0.632500        0
0.635000        0
0.637500        0
0.640000        0
0.642500        0
0.645000        0
0.647500        0
0.650000        0
0.652500        0
0.655000        0
0.657500        0
0.660000        0
0.662500        0
0.665000        0
0.667500        0
0.670000        0
0.672500        0
0.675000        0
0.677500        0
0.680000        0
0.682500        0
0.685000        0
0.687500        0
0.690000        0
0.692500        0
0.695000        0
0.697500        0
0.700000        0
0.702500        0
0.705000        0
0.707500        0
0.710000        0
0.712500        0
0.715000        0
0.717500        0
0.720000        0
0.722500        0
0.725000        0
0.727500        0
0.730000        0
0.732500        0
0.735000        0
0.737500        0
0.740000        0
0.742500        0
0.745000        0
0.747500        0
0.750000        0
0.752500        0
0.755000        0
0.757500        0
0.760000        0
0.762500        0
0.765000        0
0.767500        0
0.770000        0
0.772500        0
0.775000        0
0.777500        0
0.780000        0
0.782500        0
0.785000        0
0.787500        0
0.790000        0
0.792500        0
0.795000        0
0.797500        0
0.800000        0
0.802500        0
0.805000        0
0.807500        0
0.810000        0
0.812500        0
0.815000        0
0.817500        0
0.820000        0
0.822500        0
0.825000        0
0.827500        0
0.830000        0
0.832500        0
0.835000        0
0.837500        0
0.840000        0
0.842500        0
0.845000        0
0.847500        0
0.850000        0
0.852500        0
0.855000        0
0.857500        0
0.860000        0
0.862500        0
0.865000        0
0.867500        0
0.870000        0
0.872500        0
0.875000        0
0.877500        0
0.880000        0
0.882500        0
0.885000        0
0.887500        0
0.890000        0
0.892500        0
0.895000        0
0.897500        0
0.900000        0
0.902500        0
0.905000        0
0.907500        0
0.910000        0
0.912500        0
0.915000        0
0.917500        0
0.920000        0
0.922500        0
0.925000        0
0.927500        0
0.930000        0
0.932500        0
0.935000        0
0.937500        0
0.940000        0
0.942500        0
0.945000        0
0.947500        0
0.950000        0
0.952500        0
0.955000        0
