# Relative Source Time Function
# for the 2013 Mw 3.3 St. Gallen earthquake
# Király-Proag et al., GRL, 2019
# 
# Station: SGT03
# Wave type: SN
# EGF: EGF1
# 
# time(s) amp(N.m/s)
0.000000        0
0.002500  1.318e+12
0.005000  4.56508e+12
0.007500  8.07973e+12
0.010000  1.02644e+13
0.012500  1.04539e+13
0.015000  9.35305e+12
0.017500  8.06852e+12
0.020000  8.27434e+12
0.022500  1.02146e+13
0.025000  1.42419e+13
0.027500  2.01546e+13
0.030000  2.80279e+13
0.032500  3.71785e+13
0.035000  4.73637e+13
0.037500  5.78278e+13
0.040000  6.78733e+13
0.042500  7.68242e+13
0.045000  8.37986e+13
0.047500  8.8497e+13
0.050000  8.98334e+13
0.052500  8.78421e+13
0.055000  8.21935e+13
0.057500  7.30634e+13
0.060000  6.10979e+13
0.062500  4.78368e+13
0.065000  3.68758e+13
0.067500  2.92726e+13
0.070000  2.47838e+13
0.072500  2.1565e+13
0.075000  2.42802e+13
0.077500  3.26183e+13
0.080000  5.41788e+13
0.082500  8.67014e+13
0.085000  1.42104e+14
0.087500  2.04555e+14
0.090000  2.73907e+14
0.092500  3.49541e+14
0.095000  4.30299e+14
0.097500  5.14627e+14
0.100000  6.0052e+14
0.102500  6.85673e+14
0.105000  7.67524e+14
0.107500  8.43417e+14
0.110000  9.10706e+14
0.112500  9.66977e+14
0.115000  1.01008e+15
0.117500  1.03832e+15
0.120000  1.05064e+15
0.122500  1.04656e+15
0.125000  1.02631e+15
0.127500  9.90856e+14
0.130000  9.41774e+14
0.132500  8.81187e+14
0.135000  8.11804e+14
0.137500  7.36590e+14
0.140000  6.58724e+14
0.142500  5.81427e+14
0.145000  5.07742e+14
0.147500  4.40489e+14
0.150000  3.8201e+14
0.152500  3.34175e+14
0.155000  2.98231e+14
0.157500  2.74798e+14
0.160000  2.63859e+14
0.162500  2.6477e+14
0.165000  2.76342e+14
0.167500  2.96883e+14
0.170000  3.24333e+14
0.172500  3.56444e+14
0.175000  3.90692e+14
0.177500  4.2465e+14
0.180000  4.55915e+14
0.182500  4.82348e+14
0.185000  5.02174e+14
0.187500  5.13812e+14
0.190000  5.16524e+14
0.192500  5.09751e+14
0.195000  4.93438e+14
0.197500  4.7639e+14
0.200000  4.56171e+14
0.202500  4.28874e+14
0.205000  3.9615e+14
0.207500  3.61941e+14
0.210000  3.28274e+14
0.212500  2.94909e+14
0.215000  2.63751e+14
0.217500  2.36476e+14
0.220000  2.14467e+14
0.222500  1.98663e+14
0.225000  1.89561e+14
0.227500  1.87189e+14
0.230000  1.90935e+14
0.232500  1.99694e+14
0.235000  2.1197e+14
0.237500  2.25786e+14
0.240000  2.38639e+14
0.242500  2.48066e+14
0.245000  2.51376e+14
0.247500  2.47577e+14
0.250000  2.33258e+14
0.252500  2.05609e+14
0.255000  1.62935e+14
0.257500  1.04063e+14
0.260000  2.84937e+13
0.262500        0
0.265000        0
0.267500        0
0.270000        0
0.272500        0
0.275000        0
0.277500        0
0.280000        0
0.282500        0
0.285000        0
0.287500        0
0.290000        0
0.292500        0
0.295000        0
0.297500        0
0.300000        0
0.302500        0
0.305000        0
0.307500        0
0.310000        0
0.312500        0
0.315000        0
0.317500        0
0.320000        0
0.322500        0
0.325000        0
0.327500        0
0.330000        0
0.332500        0
0.335000        0
0.337500  1.13938e+13
0.340000  8.12027e+12
0.342500  1.24246e+12
0.345000        0
0.347500        0
0.350000        0
0.352500        0
0.355000        0
0.357500        0
0.360000        0
0.362500        0
0.365000        0
0.367500        0
0.370000        0
0.372500        0
0.375000        0
0.377500        0
0.380000        0
0.382500        0
0.385000        0
0.387500        0
0.390000        0
0.392500        0
0.395000        0
0.397500        0
0.400000        0
0.402500        0
0.405000        0
0.407500        0
0.410000        0
0.412500        0
0.415000        0
0.417500        0
0.420000        0
0.422500        0
0.425000        0
0.427500        0
0.430000        0
0.432500        0
0.435000        0
0.437500        0
0.440000        0
0.442500        0
0.445000        0
0.447500        0
0.450000        0
0.452500        0
0.455000        0
0.457500        0
0.460000        0
0.462500        0
0.465000        0
0.467500        0
0.470000        0
0.472500        0
0.475000        0
0.477500        0
0.480000        0
0.482500        0
0.485000        0
0.487500        0
0.490000        0
0.492500        0
0.495000        0
0.497500        0
0.500000        0
0.502500        0
0.505000        0
0.507500        0
0.510000        0
0.512500        0
0.515000        0
0.517500        0
0.520000        0
0.522500        0
0.525000        0
0.527500        0
0.530000        0
0.532500        0
0.535000        0
0.537500        0
0.540000        0
0.542500        0
0.545000        0
0.547500        0
0.550000        0
0.552500        0
0.555000        0
0.557500        0
0.560000        0
0.562500        0
0.565000        0
0.567500        0
0.570000        0
0.572500        0
0.575000        0
0.577500        0
0.580000        0
0.582500        0
0.585000        0
0.587500        0
0.590000        0
0.592500        0
0.595000        0
0.597500        0
0.600000        0
0.602500        0
0.605000        0
0.607500        0
0.610000        0
0.612500        0
0.615000        0
0.617500        0
0.620000        0
0.622500        0
0.625000        0
0.627500        0
0.630000        0
0.632500        0
0.635000        0
0.637500        0
0.640000        0
0.642500        0
0.645000        0
0.647500        0
0.650000        0
0.652500        0
0.655000        0
0.657500        0
0.660000        0
0.662500        0
0.665000        0
0.667500        0
0.670000        0
0.672500        0
0.675000        0
0.677500        0
0.680000        0
0.682500        0
0.685000        0
0.687500        0
0.690000        0
0.692500        0
0.695000        0
0.697500        0
0.700000        0
0.702500        0
0.705000        0
0.707500        0
0.710000        0
0.712500        0
0.715000        0
0.717500        0
0.720000        0
0.722500        0
0.725000        0
0.727500        0
0.730000        0
0.732500        0
0.735000        0
0.737500        0
0.740000        0
0.742500        0
0.745000        0
0.747500        0
0.750000        0
0.752500        0
0.755000        0
0.757500        0
0.760000        0
0.762500        0
0.765000        0
0.767500        0
0.770000        0
0.772500        0
0.775000        0
0.777500        0
0.780000        0
0.782500        0
0.785000        0
0.787500        0
0.790000        0
0.792500        0
0.795000        0
0.797500        0
0.800000        0
0.802500        0
0.805000        0
0.807500        0
0.810000        0
0.812500        0
0.815000        0
0.817500        0
0.820000        0
0.822500        0
0.825000        0
0.827500        0
0.830000        0
0.832500        0
0.835000        0
0.837500        0
0.840000        0
0.842500        0
0.845000        0
0.847500        0
0.850000        0
0.852500        0
0.855000        0
0.857500        0
0.860000        0
0.862500        0
0.865000        0
0.867500        0
0.870000        0
0.872500        0
0.875000        0
0.877500        0
0.880000        0
0.882500        0
0.885000        0
0.887500        0
0.890000        0
0.892500        0
0.895000        0
0.897500        0
0.900000        0
0.902500        0
0.905000        0
0.907500        0
