# Relative Source Time Function
# for the 2013 Mw 3.3 St. Gallen earthquake
# Király-Proag et al., GRL, 2019
# https://doi.org/10.1029/2019GL082911
#
# Station: SGT06
# Wave type: SN
# EGF: EGF2
#
# time(s) amp(N.m/s)
0.000000        0
0.002500        0
0.005000        0
0.007500        0
0.010000        0
0.012500        0
0.015000        0
0.017500        0
0.020000        0
0.022500        0
0.025000        0
0.027500        0
0.030000        0
0.032500        0
0.035000        0
0.037500        0
0.040000  5.15978e+14
0.042500  9.72402e+14
0.045000  1.29886e+15
0.047500  1.51011e+15
0.050000  1.62313e+15
0.052500  1.6553e+15
0.055000  1.62749e+15
0.057500  1.55862e+15
0.060000  1.46874e+15
0.062500  1.36405e+15
0.065000  1.25048e+15
0.067500  1.14689e+15
0.070000  1.04997e+15
0.072500  9.56312e+14
0.075000  8.66791e+14
0.077500  7.78889e+14
0.080000  6.91804e+14
0.082500  6.03649e+14
0.085000  5.13873e+14
0.087500  4.21993e+14
0.090000  3.28727e+14
0.092500  2.35115e+14
0.095000  1.43611e+14
0.097500  6.11969e+13
0.100000  4.72767e+13
0.102500  5.07466e+13
0.105000  6.44868e+13
0.107500  9.11557e+13
0.110000  1.33013e+14
0.112500  1.90274e+14
0.115000  2.60391e+14
0.117500  3.38408e+14
0.120000  4.16452e+14
0.122500  4.84049e+14
0.125000  5.29058e+14
0.127500  5.38868e+14
0.130000  5.01409e+14
0.132500  4.08108e+14
0.135000  2.53322e+14
0.137500  3.95616e+13
0.140000        0
0.142500        0
0.145000        0
0.147500        0
0.150000        0
0.152500        0
0.155000        0
0.157500        0
0.160000        0
0.162500        0
0.165000        0
0.167500        0
0.170000        0
0.172500        0
0.175000        0
0.177500        0
0.180000  1.7064e+14
0.182500  3.26829e+14
0.185000  4.13895e+14
0.187500  4.5791e+14
0.190000  4.46897e+14
0.192500  3.88534e+14
0.195000  3.00659e+14
0.197500  2.01171e+14
0.200000  1.0699e+14
0.202500  3.1885e+13
0.205000        0
0.207500        0
0.210000        0
0.212500  2.14503e+13
0.215000  8.73291e+13
0.217500  1.51727e+14
0.220000  2.11432e+14
0.222500  2.62003e+14
0.225000  2.92771e+14
0.227500  2.99747e+14
0.230000  2.78364e+14
0.232500  2.27501e+14
0.235000  1.46076e+14
0.237500  5.87935e+13
0.240000        0
0.242500        0
0.245000        0
0.247500        0
0.250000        0
0.252500        0
0.255000        0
0.257500        0
0.260000        0
0.262500        0
0.265000        0
0.267500        0
0.270000        0
0.272500        0
0.275000        0
0.277500        0
0.280000        0
0.282500        0
0.285000        0
0.287500        0
0.290000        0
0.292500        0
0.295000  5.48274e+13
0.297500  2.76641e+14
0.300000  4.23742e+14
0.302500  4.7529e+14
0.305000  4.09606e+14
0.307500  2.06731e+14
0.310000        0
0.312500        0
0.315000        0
0.317500        0
0.320000        0
0.322500        0
0.325000        0
0.327500        0
0.330000        0
0.332500        0
0.335000        0
0.337500        0
0.340000        0
0.342500        0
0.345000        0
0.347500        0
0.350000        0
0.352500        0
0.355000        0
0.357500        0
0.360000        0
0.362500        0
0.365000        0
0.367500        0
0.370000        0
0.372500        0
0.375000        0
0.377500        0
0.380000        0
0.382500        0
0.385000        0
0.387500        0
0.390000        0
0.392500        0
0.395000        0
0.397500        0
0.400000        0
0.402500        0
0.405000        0
0.407500        0
0.410000        0
0.412500        0
0.415000        0
0.417500        0
0.420000        0
0.422500        0
0.425000        0
0.427500        0
0.430000        0
0.432500        0
0.435000        0
0.437500        0
0.440000        0
0.442500        0
0.445000        0
0.447500        0
0.450000        0
0.452500        0
0.455000        0
0.457500        0
0.460000        0
0.462500        0
0.465000        0
0.467500        0
0.470000        0
0.472500        0
0.475000        0
0.477500        0
0.480000        0
0.482500        0
0.485000        0
0.487500        0
0.490000        0
0.492500        0
0.495000        0
0.497500        0
0.500000        0
