# Relative Source Time Function
# for the 2013 Mw 3.3 St. Gallen earthquake
# Király-Proag et al., GRL, 2019
# https://doi.org/10.1029/2019GL082911
#
# Station: SGT00
# Wave type: P
# EGF: EGF2
#
# time(s) amp(N.m/s)
0.000000        0
0.002500  6.31572e+12
0.005000        0
0.007500        0
0.010000        0
0.012500  2.40402e+13
0.015000  4.5805e+13
0.017500  4.76027e+13
0.020000  3.1076e+13
0.022500  9.05682e+12
0.025000        0
0.027500        0
0.030000        0
0.032500        0
0.035000  2.42148e+13
0.037500  1.27846e+14
0.040000  2.68816e+14
0.042500  3.88242e+14
0.045000  4.62136e+14
0.047500  4.90884e+14
0.050000  4.88113e+14
0.052500  4.74005e+14
0.055000  4.83473e+14
0.057500  5.23669e+14
0.060000  6.29263e+14
0.062500  7.76293e+14
0.065000  9.77707e+14
0.067500  1.19608e+15
0.070000  1.38185e+15
0.072500  1.50527e+15
0.075000  1.55755e+15
0.077500  1.53668e+15
0.080000  1.45846e+15
0.082500  1.34914e+15
0.085000  1.23783e+15
0.087500  1.15101e+15
0.090000  1.11005e+15
0.092500  1.11552e+15
0.095000  1.15734e+15
0.097500  1.20673e+15
0.100000  1.23908e+15
0.102500  1.2269e+15
0.105000  1.14745e+15
0.107500  9.93165e+14
0.110000  7.9772e+14
0.112500  6.01971e+14
0.115000  3.84711e+14
0.117500  1.70555e+14
0.120000  4.70916e+13
0.122500  5.56065e+13
0.125000  9.84026e+13
0.127500  1.60972e+14
0.130000  2.22939e+14
0.132500  2.61017e+14
0.135000  2.70643e+14
0.137500  2.49346e+14
0.140000  1.97171e+14
0.142500  1.31423e+14
0.145000  7.01264e+13
0.147500  3.15387e+13
0.150000  2.53679e+13
0.152500  4.87323e+13
0.155000  8.8468e+13
0.157500  1.20723e+14
0.160000  1.24022e+14
0.162500  5.31058e+13
0.165000        0
0.167500        0
0.170000        0
0.172500        0
0.175000        0
0.177500        0
0.180000        0
0.182500        0
0.185000        0
0.187500        0
0.190000        0
0.192500        0
0.195000        0
0.197500        0
0.200000        0
0.202500        0
0.205000  3.10635e+13
0.207500  2.73744e+14
0.210000  4.15239e+14
0.212500  4.47804e+14
0.215000  3.58014e+14
0.217500  1.338e+14
0.220000        0
0.222500        0
0.225000        0
0.227500        0
0.230000        0
0.232500        0
0.235000        0
0.237500        0
0.240000        0
0.242500        0
0.245000        0
0.247500        0
0.250000        0
0.252500        0
0.255000        0
0.257500        0
0.260000        0
0.262500        0
0.265000        0
0.267500        0
0.270000        0
0.272500        0
0.275000        0
0.277500        0
0.280000        0
0.282500        0
0.285000        0
0.287500        0
0.290000        0
0.292500        0
0.295000        0
0.297500        0
0.300000        0
0.302500        0
0.305000        0
0.307500        0
0.310000        0
0.312500        0
0.315000        0
0.317500        0
0.320000        0
0.322500        0
0.325000        0
0.327500        0
0.330000        0
0.332500        0
0.335000        0
0.337500        0
0.340000        0
0.342500        0
0.345000        0
0.347500        0
0.350000        0
0.352500        0
0.355000        0
0.357500        0
