# Relative Source Time Function
# for the 2013 Mw 3.3 St. Gallen earthquake
# Király-Proag et al., GRL, 2019
# 
# Station: SGT06
# Wave type: SE
# EGF: EGF2
# 
# time(s) amp(N.m/s)
0.000000        0
0.002500  5.52917e+13
0.005000  1.46099e+14
0.007500  2.04923e+14
0.010000  2.19763e+14
0.012500  2.07966e+14
0.015000  1.91391e+14
0.017500  2.0013e+14
0.020000  2.24619e+14
0.022500  2.63820e+14
0.025000  3.28423e+14
0.027500  4.27302e+14
0.030000  5.24814e+14
0.032500  6.1882e+14
0.035000  7.07632e+14
0.037500  7.90693e+14
0.040000  8.67707e+14
0.042500  9.38508e+14
0.045000  1.00266e+15
0.047500  1.05992e+15
0.050000  1.10943e+15
0.052500  1.15069e+15
0.055000  1.18341e+15
0.057500  1.20652e+15
0.060000  1.22039e+15
0.062500  1.22417e+15
0.065000  1.21741e+15
0.067500  1.19978e+15
0.070000  1.17014e+15
0.072500  1.12772e+15
0.075000  1.07163e+15
0.077500  1.0012e+15
0.080000  9.1573e+14
0.082500  8.1552e+14
0.085000  7.01724e+14
0.087500  5.75517e+14
0.090000  4.45272e+14
0.092500  3.52864e+14
0.095000  2.70314e+14
0.097500  1.93191e+14
0.100000  1.25684e+14
0.102500  7.07907e+13
0.105000  3.41077e+13
0.107500  2.10103e+13
0.110000  3.45925e+13
0.112500  7.56024e+13
0.115000  1.42243e+14
0.117500  2.29652e+14
0.120000  3.29428e+14
0.122500  4.30361e+14
0.125000  5.19465e+14
0.127500  5.81942e+14
0.130000  6.02686e+14
0.132500  5.66701e+14
0.135000  4.61792e+14
0.137500  2.77208e+14
0.140000  9.0689e+12
0.142500        0
0.145000        0
0.147500        0
0.150000        0
0.152500        0
0.155000        0
0.157500        0
0.160000        0
0.162500        0
0.165000        0
0.167500        0
0.170000        0
0.172500        0
0.175000        0
0.177500        0
0.180000        0
0.182500        0
0.185000        0
0.187500        0
0.190000        0
0.192500        0
0.195000        0
0.197500        0
0.200000        0
0.202500        0
0.205000        0
0.207500        0
0.210000        0
0.212500        0
0.215000        0
0.217500        0
0.220000  1.8889e+14
0.222500  3.63169e+14
0.225000  4.47958e+14
0.227500  4.48144e+14
0.230000  3.70477e+14
0.232500  2.22252e+14
0.235000  1.09973e+13
0.237500        0
0.240000        0
0.242500        0
0.245000        0
0.247500        0
0.250000        0
0.252500        0
0.255000        0
0.257500        0
0.260000        0
0.262500        0
0.265000        0
0.267500        0
0.270000        0
0.272500        0
0.275000        0
0.277500        0
0.280000        0
0.282500        0
0.285000        0
0.287500        0
0.290000        0
0.292500        0
0.295000  2.26625e+13
0.297500        0
0.300000        0
0.302500        0
0.305000        0
0.307500        0
0.310000        0
0.312500        0
0.315000        0
0.317500        0
0.320000        0
0.322500        0
0.325000        0
0.327500        0
0.330000        0
0.332500        0
0.335000        0
0.337500        0
0.340000        0
0.342500        0
0.345000        0
0.347500        0
0.350000        0
0.352500        0
0.355000        0
0.357500        0
0.360000        0
0.362500        0
0.365000        0
0.367500        0
0.370000        0
0.372500        0
0.375000        0
0.377500        0
0.380000        0
0.382500        0
0.385000        0
0.387500        0
0.390000        0
0.392500        0
0.395000        0
0.397500        0
0.400000        0
0.402500        0
0.405000        0
0.407500        0
0.410000        0
0.412500        0
0.415000        0
0.417500        0
0.420000        0
0.422500        0
0.425000        0
0.427500        0
0.430000        0
0.432500        0
0.435000        0
0.437500        0
0.440000        0
0.442500        0
0.445000        0
0.447500        0
0.450000        0
0.452500        0
0.455000        0
0.457500        0
0.460000        0
0.462500        0
0.465000        0
0.467500        0
0.470000        0
0.472500        0
0.475000        0
0.477500        0
0.480000        0
0.482500        0
0.485000        0
0.487500        0
0.490000        0
0.492500        0
0.495000        0
0.497500        0
0.500000        0
